
The following are the relative energies for the simulation SPCENoQuadTest
Number of Eigenvalues: 55
Zero Point Energy = -9.962822938566092e-01 kJ/mol
State | Relative Energy (kJ/mol)
0 0.000000000000000e+00
1 2.869594073172266e-02
2 5.980985169173891e-02
3 8.821296589565009e-02
4 1.120120541453389e-01
5 1.403802509526031e-01
6 1.855325162513282e-01
7 2.158893745393016e-01
8 2.550614770592574e-01
9 2.784918144978974e-01
10 3.277580693152231e-01
11 3.547785971250050e-01
12 3.935706568842079e-01
13 4.298461681759136e-01
14 4.625226277102001e-01
15 4.898749465279479e-01
16 5.204140649783540e-01
17 5.573343921221294e-01
18 6.019901232496068e-01
19 6.277304299554771e-01
20 6.597307123728342e-01
21 7.133717237832116e-01
22 7.475915822616344e-01
23 7.784227935813988e-01
24 8.140579190276185e-01
25 8.560667869328427e-01
26 8.857518734982932e-01
27 9.207080257788220e-01
28 9.596837226691832e-01
29 9.993238665621220e-01
30 1.027699020478281e+00
31 1.072278583319644e+00
32 1.111863294588602e+00
33 1.142749887076093e+00
34 1.185474050760376e+00
35 1.221902044046828e+00
36 1.267187774184436e+00
37 1.298047165379558e+00
38 1.327937960814666e+00
39 1.371120625882327e+00
40 1.414792017013497e+00
41 1.455668494172187e+00
42 1.490029893566884e+00
43 1.542878242713755e+00
44 1.572427334722533e+00
45 1.620842737526459e+00
46 1.646420636229323e+00
47 1.680833391110127e+00
48 1.725058131787250e+00
49 1.779019395958926e+00
50 1.809291999474453e+00
51 1.855606751302389e+00
52 1.892869306733132e+00
53 1.933655523134576e+00
54 1.964641713530909e+00
