
The following are the relative energies for the simulation SPCENoQuadTestMac
Number of Eigenvalues: 28
Zero Point Energy = -8.990387915358724e+00 kJ/mol
State | Relative Energy (kJ/mol)
0 0.000000000000000e+00
1 4.880062489291959e-01
2 6.442077876567964e-01
3 7.593897259152982e-01
4 2.059534868410537e+00
5 2.233614238630253e+00
6 2.695376081851464e+00
7 3.118229060119120e+00
8 3.551444113227262e+00
9 4.047727863662658e+00
10 4.624075686610922e+00
11 5.239748561593842e+00
12 5.814675045671720e+00
13 6.432297370668039e+00
14 7.149789054492430e+00
15 8.050368003844142e+00
16 8.972218617536782e+00
17 9.299402934996124e+00
18 1.024004033786241e+01
19 1.107542090848483e+01
20 1.201772066098783e+01
21 1.279921557515763e+01
22 1.384525303653390e+01
23 1.480653634559530e+01
24 1.578489247651760e+01
25 1.666431131166746e+01
26 1.775991009872541e+01
27 1.870716271308083e+01
