
The following are the relative energies for the simulation SPCENoQuadTestMac
Number of Eigenvalues: 31
Zero Point Energy = -7.349963285964236e+00 kJ/mol
State | Relative Energy (kJ/mol)
0 0.000000000000000e+00
1 7.659495557243190e-01
2 1.209531059195115e+00
3 1.276139230420767e+00
4 1.489025493730196e+00
5 1.578610713858097e+00
6 2.162039669261731e+00
7 2.537915409764082e+00
8 2.890340831224876e+00
9 3.142638996548612e+00
10 3.524353574046017e+00
11 3.919990314492452e+00
12 4.426428081303584e+00
13 4.850094077988842e+00
14 5.467101393392113e+00
15 6.048663882446590e+00
16 6.579752352241712e+00
17 7.349199077070807e+00
18 7.818723729430985e+00
19 8.505937220932083e+00
20 9.256661928025096e+00
21 9.872468782062924e+00
22 1.069730396886143e+01
23 1.143263646057790e+01
24 1.199775245796559e+01
25 1.293824119659348e+01
26 1.373935331694838e+01
27 1.456203928312902e+01
28 1.533901507920177e+01
29 1.612905584467399e+01
30 1.685639628093099e+01
