
The following are the relative energies for the simulation SPCENoQuadTestMac
Number of Eigenvalues: 28
Zero Point Energy = -8.990387915351903e+00 kJ/mol
State | Relative Energy (kJ/mol)
0 0.000000000000000e+00
1 4.880062489382908e-01
2 6.442077879478347e-01
3 7.593897259130244e-01
4 2.059534900383824e+00
5 2.233614420936192e+00
6 2.695419249350834e+00
7 3.118232981532856e+00
8 3.551453341315209e+00
9 4.047746426958838e+00
10 4.624091471346219e+00
11 5.239819714481655e+00
12 5.814741123997464e+00
13 6.432383817011669e+00
14 7.149841159784955e+00
15 8.050445655624117e+00
16 8.972233412912374e+00
17 9.299624901025254e+00
18 1.024016440278956e+01
19 1.107554596240561e+01
20 1.201787856089140e+01
21 1.279936929206542e+01
22 1.384540173007508e+01
23 1.480667392090027e+01
24 1.578506881675366e+01
25 1.666444363159144e+01
26 1.776007064846453e+01
27 1.870736017134504e+01
